mN[GeV] Gamma[GeV] tau[sec] Brto3nu  Uel=1, Umu=0, Utau=0
0.01 7.16464e-24 0.0918694 0.637916
0.02 2.31527e-22 0.00284292 0.631694
0.03 1.76138e-21 0.000373691 0.630538
0.04 7.42722e-21 8.86216e-05 0.630133
0.05 2.26728e-20 2.90309e-05 0.629945
0.06 5.64263e-20 1.1665e-05 0.629844
0.07 1.21971e-19 5.39644e-06 0.629782
0.08 2.37818e-19 2.76771e-06 0.629742
0.09 4.28575e-19 1.53581e-06 0.629715
0.1 7.25818e-19 9.06855e-07 0.629695
0.11 1.16897e-18 5.63072e-07 0.62968
0.12 1.80643e-18 3.64371e-07 0.629568
0.13 2.69876e-18 2.43895e-07 0.628799
0.14 4.07839e-18 1.6139e-07 0.602712
0.15 1.22986e-17 5.35193e-08 0.282202
0.16 3.21943e-17 2.0445e-08 0.14886
0.17 6.41118e-17 1.02666e-08 0.10122
0.18 1.08505e-16 6.06619e-09 0.0795923
0.19 1.65917e-16 3.96712e-09 0.0682081
0.2 2.36963e-16 2.77769e-09 0.0617201
0.21 3.22326e-16 2.04207e-09 0.0579107
0.22 4.22743e-16 1.557e-09 0.055718
0.23 5.39006e-16 1.22116e-09 0.0545763
0.24 6.71961e-16 9.7954e-10 0.054159
0.25 8.225e-16 8.00258e-10 0.0542653
0.26 9.91566e-16 6.63811e-10 0.0547651
0.27 1.18015e-15 5.57737e-10 0.0555701
0.28 1.38928e-15 4.73779e-10 0.0566185
0.29 1.62005e-15 4.06292e-10 0.0578656
0.3 1.87358e-15 3.51313e-10 0.0592779
0.31 2.15105e-15 3.05996e-10 0.0608298
0.32 2.45369e-15 2.68254e-10 0.0625012
0.33 2.78278e-15 2.36531e-10 0.0642761
0.34 3.13963e-15 2.09646e-10 0.0661415
0.35 3.52564e-15 1.86693e-10 0.0680864
0.36 3.94223e-15 1.66965e-10 0.0701018
0.37 4.39088e-15 1.49904e-10 0.0721798
0.38 4.87313e-15 1.3507e-10 0.0743135
0.39 5.39059e-15 1.22104e-10 0.0764971
0.4 5.94491e-15 1.10719e-10 0.0787251
0.41 6.53779e-15 1.00678e-10 0.0809928
0.42 7.17102e-15 9.17877e-11 0.0832959
0.43 7.84643e-15 8.38868e-11 0.0856305
0.44 8.56592e-15 7.68408e-11 0.0879929
0.45 9.33145e-15 7.05369e-11 0.0903799
0.46 1.01451e-14 6.48801e-11 0.0927882
0.47 1.10088e-14 5.97894e-11 0.0952152
0.48 1.19249e-14 5.51962e-11 0.097658
0.49 1.28956e-14 5.10414e-11 0.100114
0.5 1.39238e-14 4.72726e-11 0.102577
0.51 1.50137e-14 4.38407e-11 0.105032
0.52 1.61682e-14 4.07104e-11 0.107477
0.53 1.73896e-14 3.78508e-11 0.109912
0.54 1.86808e-14 3.52348e-11 0.11234
0.55 2.00444e-14 3.28377e-11 0.114757
0.56 2.14887e-14 3.06305e-11 0.117135
0.57 2.30191e-14 2.85941e-11 0.119466
0.58 2.46385e-14 2.67147e-11 0.121754
0.59 2.635e-14 2.49796e-11 0.124005
0.6 2.81567e-14 2.33767e-11 0.126221
0.61 3.00619e-14 2.18952e-11 0.128408
0.62 3.20689e-14 2.05249e-11 0.130567
0.63 3.41812e-14 1.92566e-11 0.132701
0.64 3.64022e-14 1.80816e-11 0.134812
0.65 3.87358e-14 1.69924e-11 0.136903
0.66 4.11854e-14 1.59817e-11 0.138974
0.67 4.37551e-14 1.50431e-11 0.141027
0.68 4.64488e-14 1.41707e-11 0.143063
0.69 4.92705e-14 1.33592e-11 0.145083
0.7 5.22243e-14 1.26036e-11 0.147088
0.71 5.53145e-14 1.18994e-11 0.149077
0.72 5.85455e-14 1.12427e-11 0.151052
0.73 6.19217e-14 1.06297e-11 0.153013
0.74 6.54478e-14 1.00571e-11 0.154961
0.75 6.91284e-14 9.52159e-12 0.156895
0.76 7.29683e-14 9.02052e-12 0.158815
0.77 7.69724e-14 8.55127e-12 0.160723
0.78 8.12016e-14 8.1059e-12 0.162505
0.79 8.60081e-14 7.65291e-12 0.163514
0.8 9.14428e-14 7.19807e-12 0.163779
0.81 9.74906e-14 6.75154e-12 0.163463
0.82 1.04138e-13 6.3206e-12 0.162712
0.83 1.11372e-13 5.91005e-12 0.16165
0.84 1.19182e-13 5.52274e-12 0.160377
0.85 1.2756e-13 5.16e-12 0.158978
0.86 1.36498e-13 4.82213e-12 0.157516
0.87 1.45989e-13 4.50863e-12 0.156039
0.88 1.56029e-13 4.21853e-12 0.154585
0.89 1.66612e-13 3.95058e-12 0.15318
0.9 1.77757e-13 3.70287e-12 0.151825
0.91 1.89575e-13 3.47204e-12 0.150447
0.92 2.02078e-13 3.25722e-12 0.149066
0.93 2.1526e-13 3.05776e-12 0.14771
0.94 2.29114e-13 2.87286e-12 0.146402
0.95 2.43637e-13 2.70161e-12 0.145155
0.96 2.48619e-13 2.64747e-12 0.149893
0.97 2.61991e-13 2.51234e-12 0.149806
0.98 2.75932e-13 2.38542e-12 0.149722
0.99 2.90458e-13 2.26612e-12 0.149641
1 3.05589e-13 2.15391e-12 0.149562
1.01 3.21342e-13 2.04832e-12 0.149485
1.02 3.37738e-13 1.94889e-12 0.14941
1.03 3.54794e-13 1.85519e-12 0.149337
1.04 3.72532e-13 1.76686e-12 0.149266
1.05 3.9097e-13 1.68353e-12 0.149197
1.06 4.10131e-13 1.60488e-12 0.14913
1.07 4.30033e-13 1.53061e-12 0.149065
1.08 4.507e-13 1.46042e-12 0.149001
1.09 4.72153e-13 1.39407e-12 0.148939
1.1 4.94413e-13 1.3313e-12 0.148879
1.11 5.17503e-13 1.2719e-12 0.14882
1.12 5.41447e-13 1.21565e-12 0.148762
1.13 5.66268e-13 1.16237e-12 0.148706
1.14 5.91989e-13 1.11187e-12 0.148651
1.15 6.18634e-13 1.06398e-12 0.148598
1.16 6.4623e-13 1.01854e-12 0.148546
1.17 6.74799e-13 9.75419e-13 0.148495
1.18 7.04369e-13 9.34471e-13 0.148446
1.19 7.34964e-13 8.9557e-13 0.148398
1.2 7.66612e-13 8.58598e-13 0.14835
1.21 7.9934e-13 8.23444e-13 0.148304
1.22 8.33174e-13 7.90006e-13 0.148259
1.23 8.68142e-13 7.58185e-13 0.148215
1.24 9.04273e-13 7.27891e-13 0.148172
1.25 9.41595e-13 6.99039e-13 0.14813
1.26 9.80138e-13 6.7155e-13 0.148089
1.27 1.01993e-12 6.45349e-13 0.148049
1.28 1.061e-12 6.20367e-13 0.14801
1.29 1.10339e-12 5.96537e-13 0.147972
1.3 1.14711e-12 5.73798e-13 0.147934
1.31 1.19221e-12 5.52092e-13 0.147897
1.32 1.23872e-12 5.31365e-13 0.147862
1.33 1.28666e-12 5.11565e-13 0.147826
1.34 1.33608e-12 4.92645e-13 0.147792
1.35 1.387e-12 4.74559e-13 0.147758
1.36 1.43945e-12 4.57265e-13 0.147725
1.37 1.49348e-12 4.40722e-13 0.147693
1.38 1.54912e-12 4.24893e-13 0.147662
1.39 1.60641e-12 4.09741e-13 0.147631
1.4 1.66537e-12 3.95234e-13 0.1476
1.41 1.72605e-12 3.8134e-13 0.147571
1.42 1.78849e-12 3.68027e-13 0.147542
1.43 1.85271e-12 3.55269e-13 0.147513
1.44 1.91877e-12 3.43039e-13 0.147485
1.45 1.98669e-12 3.3131e-13 0.147458
1.46 2.05652e-12 3.2006e-13 0.147431
1.47 2.1283e-12 3.09266e-13 0.147405
1.48 2.20207e-12 2.98906e-13 0.147379
1.49 2.27787e-12 2.88959e-13 0.147354
1.5 2.35574e-12 2.79408e-13 0.147329
1.51 2.43572e-12 2.70233e-13 0.147304
1.52 2.51786e-12 2.61418e-13 0.147281
1.53 2.60219e-12 2.52945e-13 0.147257
1.54 2.68877e-12 2.44801e-13 0.147234
1.55 2.77763e-12 2.36969e-13 0.147212
1.56 2.86883e-12 2.29436e-13 0.147189
1.57 2.9624e-12 2.22189e-13 0.147168
1.58 3.0584e-12 2.15215e-13 0.147146
1.59 3.15687e-12 2.08502e-13 0.147125
1.6 3.25785e-12 2.02039e-13 0.147105
1.61 3.3614e-12 1.95815e-13 0.147085
1.62 3.46756e-12 1.8982e-13 0.147065
1.63 3.57639e-12 1.84044e-13 0.147045
1.64 3.68793e-12 1.78477e-13 0.147026
1.65 3.80223e-12 1.73112e-13 0.147007
1.66 3.91935e-12 1.67939e-13 0.146989
1.67 4.03933e-12 1.62951e-13 0.146971
1.68 4.16223e-12 1.58139e-13 0.146953
1.69 4.2881e-12 1.53497e-13 0.146935
1.7 4.417e-12 1.49018e-13 0.146918
1.71 4.54897e-12 1.44695e-13 0.146901
1.72 4.68408e-12 1.40521e-13 0.146885
1.73 4.82238e-12 1.36491e-13 0.146868
1.74 4.96392e-12 1.32599e-13 0.146852
1.75 5.10876e-12 1.2884e-13 0.146836
1.76 5.25696e-12 1.25208e-13 0.146821
1.77 5.40857e-12 1.21698e-13 0.146805
1.78 5.56366e-12 1.18305e-13 0.14679
1.79 5.72229e-12 1.15026e-13 0.146775
1.8 5.88451e-12 1.11855e-13 0.146761
1.81 6.05039e-12 1.08788e-13 0.146747
1.82 6.21998e-12 1.05822e-13 0.146732
1.83 6.39335e-12 1.02953e-13 0.146719
1.84 6.57057e-12 1.00176e-13 0.146705
1.85 6.75169e-12 9.74885e-14 0.146691
1.86 6.93678e-12 9.48873e-14 0.146678
1.87 7.1259e-12 9.23689e-14 0.146665
1.88 7.32136e-12 8.9903e-14 0.146607
1.89 7.51893e-12 8.75407e-14 0.146592
1.9 7.72074e-12 8.52524e-14 0.146578
1.91 7.92687e-12 8.30355e-14 0.146563
1.92 8.13738e-12 8.08874e-14 0.146548
1.93 8.35235e-12 7.88056e-14 0.146533
1.94 8.57184e-12 7.67877e-14 0.146519
1.95 8.79594e-12 7.48314e-14 0.146504
1.96 9.0247e-12 7.29345e-14 0.146489
1.97 9.33667e-12 7.04975e-14 0.145244
1.98 9.58053e-12 6.87031e-14 0.145176
1.99 9.82959e-12 6.69623e-14 0.145107
2 1.00839e-11 6.52735e-14 0.145037
2.01 1.03436e-11 6.36347e-14 0.144966
2.02 1.06088e-11 6.20442e-14 0.144894
2.03 1.08794e-11 6.05005e-14 0.144821
2.04 1.11558e-11 5.90019e-14 0.144747
2.05 1.14378e-11 5.75469e-14 0.144672
2.06 1.17257e-11 5.61341e-14 0.144596
2.07 1.20195e-11 5.4762e-14 0.144518
2.08 1.23193e-11 5.34292e-14 0.14444
2.09 1.26253e-11 5.21346e-14 0.144361
2.1 1.29374e-11 5.08767e-14 0.144281
2.11 1.32558e-11 4.96545e-14 0.144199
2.12 1.35807e-11 4.84667e-14 0.144117
2.13 1.39121e-11 4.73122e-14 0.144034
2.14 1.42501e-11 4.619e-14 0.143949
2.15 1.45948e-11 4.50991e-14 0.143864
2.16 1.49464e-11 4.40383e-14 0.143778
2.17 1.53049e-11 4.30068e-14 0.14369
2.18 1.56704e-11 4.20035e-14 0.143602
2.19 1.60431e-11 4.10278e-14 0.143513
2.2 1.6423e-11 4.00786e-14 0.143423
2.21 1.68104e-11 3.91551e-14 0.143332
2.22 1.72052e-11 3.82565e-14 0.14324
2.23 1.76077e-11 3.73821e-14 0.143146
2.24 1.80178e-11 3.65311e-14 0.143053
2.25 1.84359e-11 3.57028e-14 0.142958
2.26 1.88618e-11 3.48965e-14 0.142862
2.27 1.92959e-11 3.41115e-14 0.142765
2.28 1.97382e-11 3.33472e-14 0.142668
2.29 2.01888e-11 3.26029e-14 0.142569
2.3 2.06478e-11 3.18781e-14 0.14247
2.31 2.11154e-11 3.11721e-14 0.14237
2.32 2.15918e-11 3.04844e-14 0.142269
2.33 2.20769e-11 2.98145e-14 0.142167
2.34 2.25711e-11 2.91618e-14 0.142065
2.35 2.30743e-11 2.85258e-14 0.141961
2.36 2.35867e-11 2.7906e-14 0.141857
2.37 2.41085e-11 2.7302e-14 0.141752
2.38 2.46398e-11 2.67133e-14 0.141646
2.39 2.51808e-11 2.61395e-14 0.14154
2.4 2.57315e-11 2.558e-14 0.141433
2.41 2.62921e-11 2.50346e-14 0.141325
2.42 2.68627e-11 2.45028e-14 0.141216
2.43 2.74436e-11 2.39842e-14 0.141107
2.44 2.80348e-11 2.34784e-14 0.140997
2.45 2.86365e-11 2.29851e-14 0.140886
2.46 2.92488e-11 2.25039e-14 0.140775
2.47 2.98719e-11 2.20345e-14 0.140663
2.48 3.05059e-11 2.15766e-14 0.140551
2.49 3.1151e-11 2.11297e-14 0.140438
2.5 3.18073e-11 2.06938e-14 0.140324
2.51 3.2475e-11 2.02683e-14 0.14021
2.52 3.31542e-11 1.9853e-14 0.140095
2.53 3.38451e-11 1.94478e-14 0.13998
2.54 3.45479e-11 1.90521e-14 0.139864
2.55 3.52627e-11 1.86659e-14 0.139747
2.56 3.59897e-11 1.82889e-14 0.13963
2.57 3.6729e-11 1.79208e-14 0.139513
2.58 3.74808e-11 1.75613e-14 0.139395
2.59 3.82453e-11 1.72103e-14 0.139277
2.6 3.90226e-11 1.68675e-14 0.139158
2.61 3.98129e-11 1.65326e-14 0.139039
2.62 4.06163e-11 1.62056e-14 0.13892
2.63 4.14332e-11 1.58861e-14 0.1388
2.64 4.22635e-11 1.5574e-14 0.13868
2.65 4.31075e-11 1.52691e-14 0.138559
2.66 4.39654e-11 1.49711e-14 0.138438
2.67 4.48374e-11 1.468e-14 0.138317
2.68 4.57236e-11 1.43955e-14 0.138195
2.69 4.66241e-11 1.41174e-14 0.138073
2.7 4.75393e-11 1.38456e-14 0.137951
2.71 4.84692e-11 1.358e-14 0.137828
2.72 4.94141e-11 1.33203e-14 0.137706
2.73 5.03742e-11 1.30665e-14 0.137583
2.74 5.13496e-11 1.28183e-14 0.137459
2.75 5.23405e-11 1.25756e-14 0.137336
2.76 5.33471e-11 1.23383e-14 0.137212
2.77 5.43696e-11 1.21062e-14 0.137088
2.78 5.54083e-11 1.18793e-14 0.136964
2.79 5.64632e-11 1.16574e-14 0.13684
2.8 5.75346e-11 1.14403e-14 0.136716
2.81 5.86228e-11 1.12279e-14 0.136591
2.82 5.97278e-11 1.10202e-14 0.136467
2.83 6.085e-11 1.0817e-14 0.136342
2.84 6.19895e-11 1.06181e-14 0.136217
2.85 6.31465e-11 1.04236e-14 0.136092
2.86 6.43212e-11 1.02332e-14 0.135967
2.87 6.55138e-11 1.00469e-14 0.135842
2.88 6.67246e-11 9.8646e-15 0.135717
2.89 6.79538e-11 9.68617e-15 0.135592
2.9 6.92015e-11 9.51152e-15 0.135467
2.91 7.04681e-11 9.34057e-15 0.135341
2.92 7.17536e-11 9.17323e-15 0.135216
2.93 7.30584e-11 9.0094e-15 0.135091
2.94 7.43826e-11 8.849e-15 0.134966
2.95 7.57265e-11 8.69196e-15 0.134841
2.96 7.70903e-11 8.53819e-15 0.134715
2.97 7.84742e-11 8.38762e-15 0.13459
2.98 7.98785e-11 8.24016e-15 0.134465
2.99 8.1271e-11 8.09897e-15 0.134394
3 8.27174e-11 7.95736e-15 0.134267
3.01 8.41849e-11 7.81865e-15 0.134139
3.02 8.56737e-11 7.68277e-15 0.134013
3.03 8.71842e-11 7.54967e-15 0.133886
3.04 8.87164e-11 7.41928e-15 0.133759
3.05 9.02707e-11 7.29153e-15 0.133632
3.06 9.18473e-11 7.16637e-15 0.133505
3.07 9.34465e-11 7.04373e-15 0.133379
3.08 9.50685e-11 6.92356e-15 0.133253
3.09 9.67135e-11 6.80579e-15 0.133126
3.1 9.83818e-11 6.69038e-15 0.133
3.11 1.00074e-10 6.57727e-15 0.132874
3.12 1.01789e-10 6.46641e-15 0.132748
3.13 1.03529e-10 6.35775e-15 0.132623
3.14 1.05293e-10 6.25123e-15 0.132497
3.15 1.07082e-10 6.14681e-15 0.132372
3.16 1.08895e-10 6.04444e-15 0.132247
3.17 1.10734e-10 5.94408e-15 0.132122
3.18 1.12598e-10 5.84568e-15 0.131997
3.19 1.14488e-10 5.74919e-15 0.131872
3.2 1.16403e-10 5.65458e-15 0.131748
3.21 1.18345e-10 5.56181e-15 0.131624
3.22 1.20313e-10 5.47082e-15 0.1315
3.23 1.22308e-10 5.38159e-15 0.131376
3.24 1.2433e-10 5.29407e-15 0.131252
3.25 1.26379e-10 5.20822e-15 0.131129
3.26 1.28456e-10 5.12402e-15 0.131006
3.27 1.30561e-10 5.04142e-15 0.130883
3.28 1.32694e-10 4.96039e-15 0.130761
3.29 1.34855e-10 4.88089e-15 0.130638
3.3 1.37045e-10 4.80289e-15 0.130516
3.31 1.39264e-10 4.72636e-15 0.130395
3.32 1.41512e-10 4.65127e-15 0.130273
3.33 1.4379e-10 4.57759e-15 0.130152
3.34 1.46098e-10 4.50528e-15 0.130031
3.35 1.48436e-10 4.43432e-15 0.12991
3.36 1.50804e-10 4.36468e-15 0.12979
3.37 1.53203e-10 4.29633e-15 0.12967
3.38 1.55634e-10 4.22924e-15 0.12955
3.39 1.58095e-10 4.16338e-15 0.129431
3.4 1.60589e-10 4.09874e-15 0.129312
3.41 1.63114e-10 4.03528e-15 0.129193
3.42 1.65672e-10 3.97298e-15 0.129074
3.43 1.68262e-10 3.91182e-15 0.128956
3.44 1.70886e-10 3.85176e-15 0.128838
3.45 1.73543e-10 3.7928e-15 0.128721
3.46 1.76233e-10 3.7349e-15 0.128603
3.47 1.78957e-10 3.67805e-15 0.128486
3.48 1.81715e-10 3.62221e-15 0.12837
3.49 1.84508e-10 3.56738e-15 0.128254
3.5 1.87336e-10 3.51353e-15 0.128138
3.51 1.90199e-10 3.46064e-15 0.128022
3.52 1.93098e-10 3.40869e-15 0.127907
3.53 1.96033e-10 3.35766e-15 0.127792
3.54 1.99004e-10 3.30754e-15 0.127677
3.55 2.02011e-10 3.2583e-15 0.127563
3.56 2.05055e-10 3.20992e-15 0.127449
3.57 2.08137e-10 3.1624e-15 0.127336
3.58 2.11256e-10 3.11571e-15 0.127223
3.59 2.14413e-10 3.06983e-15 0.12711
3.6 2.17609e-10 3.02475e-15 0.126997
3.61 2.20843e-10 2.98046e-15 0.126885
3.62 2.24116e-10 2.93693e-15 0.126774
3.63 2.27428e-10 2.89415e-15 0.126662
3.64 2.3078e-10 2.85211e-15 0.126551
3.65 2.34173e-10 2.8108e-15 0.126441
3.66 2.37605e-10 2.77019e-15 0.12633
3.67 2.41079e-10 2.73028e-15 0.12622
3.68 2.44593e-10 2.69105e-15 0.126111
3.69 2.4815e-10 2.65248e-15 0.126002
3.7 2.51748e-10 2.61457e-15 0.125893
3.71 2.55388e-10 2.5773e-15 0.125784
3.72 2.59071e-10 2.54066e-15 0.125676
3.73 2.62797e-10 2.50464e-15 0.125569
3.74 2.66567e-10 2.46922e-15 0.125461
3.75 2.7038e-10 2.43439e-15 0.125354
3.76 2.74238e-10 2.40015e-15 0.125248
3.77 2.7814e-10 2.36648e-15 0.125142
3.78 2.82087e-10 2.33336e-15 0.125036
3.79 2.8608e-10 2.3008e-15 0.12493
3.8 2.90118e-10 2.26877e-15 0.124825
3.81 2.94202e-10 2.23728e-15 0.12472
3.82 2.98333e-10 2.2063e-15 0.124616
3.83 3.02511e-10 2.17583e-15 0.124512
3.84 3.06736e-10 2.14586e-15 0.124408
3.85 3.11009e-10 2.11637e-15 0.124305
3.86 3.15331e-10 2.08737e-15 0.124202
3.87 3.197e-10 2.05884e-15 0.124099
3.88 3.24119e-10 2.03077e-15 0.123997
3.89 3.28587e-10 2.00316e-15 0.123895
3.9 3.33105e-10 1.97599e-15 0.123794
3.91 3.37674e-10 1.94925e-15 0.123693
3.92 3.42293e-10 1.92295e-15 0.123592
3.93 3.46963e-10 1.89707e-15 0.123492
3.94 3.51684e-10 1.8716e-15 0.123392
3.95 3.56458e-10 1.84654e-15 0.123292
3.96 3.61284e-10 1.82187e-15 0.123193
3.97 3.66162e-10 1.7976e-15 0.123094
3.98 3.71094e-10 1.7737e-15 0.122996
3.99 3.7608e-10 1.75019e-15 0.122897
4 3.8112e-10 1.72705e-15 0.1228
4.01 3.86214e-10 1.70427e-15 0.122702
4.02 3.91364e-10 1.68184e-15 0.122605
4.03 3.96568e-10 1.65977e-15 0.122508
4.04 4.01829e-10 1.63804e-15 0.122412
4.05 4.07146e-10 1.61665e-15 0.122316
4.06 4.1252e-10 1.59559e-15 0.12222
4.07 4.17952e-10 1.57485e-15 0.122125
4.08 4.23441e-10 1.55444e-15 0.12203
4.09 4.28988e-10 1.53434e-15 0.121935
4.1 4.34594e-10 1.51455e-15 0.121841
4.11 4.40259e-10 1.49506e-15 0.121747
4.12 4.45983e-10 1.47587e-15 0.121654
4.13 4.51768e-10 1.45697e-15 0.121561
4.14 4.57613e-10 1.43836e-15 0.121468
4.15 4.6352e-10 1.42003e-15 0.121375
4.16 4.69487e-10 1.40198e-15 0.121283
4.17 4.75517e-10 1.3842e-15 0.121192
4.18 4.8161e-10 1.36669e-15 0.1211
4.19 4.87765e-10 1.34945e-15 0.121009
4.2 4.93984e-10 1.33246e-15 0.120918
4.21 5.00266e-10 1.31572e-15 0.120828
4.22 5.06613e-10 1.29924e-15 0.120738
4.23 5.13025e-10 1.283e-15 0.120648
4.24 5.19503e-10 1.267e-15 0.120559
4.25 5.26046e-10 1.25124e-15 0.12047
4.26 5.32656e-10 1.23572e-15 0.120381
4.27 5.39333e-10 1.22042e-15 0.120293
4.28 5.46077e-10 1.20535e-15 0.120205
4.29 5.5289e-10 1.19049e-15 0.120118
4.3 5.5977e-10 1.17586e-15 0.12003
4.31 5.6672e-10 1.16144e-15 0.119943
4.32 5.73739e-10 1.14723e-15 0.119857
4.33 5.80829e-10 1.13323e-15 0.11977
4.34 5.87989e-10 1.11943e-15 0.119685
4.35 5.9522e-10 1.10583e-15 0.119599
4.36 6.02522e-10 1.09243e-15 0.119514
4.37 6.09897e-10 1.07922e-15 0.119429
4.38 6.17345e-10 1.0662e-15 0.119344
4.39 6.24866e-10 1.05337e-15 0.11926
4.4 6.3246e-10 1.04072e-15 0.119176
4.41 6.40129e-10 1.02825e-15 0.119092
4.42 6.47873e-10 1.01596e-15 0.119009
4.43 6.55692e-10 1.00384e-15 0.118926
4.44 6.63587e-10 9.919e-16 0.118843
4.45 6.71559e-10 9.80126e-16 0.118761
4.46 6.79608e-10 9.68518e-16 0.118679
4.47 6.87734e-10 9.57074e-16 0.118597
4.48 6.95938e-10 9.4579e-16 0.118516
4.49 7.04222e-10 9.34666e-16 0.118435
4.5 7.12585e-10 9.23697e-16 0.118354
4.51 7.21027e-10 9.12881e-16 0.118274
4.52 7.2955e-10 9.02216e-16 0.118194
4.53 7.38154e-10 8.917e-16 0.118114
4.54 7.4684e-10 8.81329e-16 0.118035
4.55 7.55608e-10 8.71103e-16 0.117956
4.56 7.64459e-10 8.61017e-16 0.117877
4.57 7.73393e-10 8.51071e-16 0.117798
4.58 7.82411e-10 8.41261e-16 0.11772
4.59 7.91513e-10 8.31587e-16 0.117642
4.6 8.00701e-10 8.22045e-16 0.117565
4.61 8.09974e-10 8.12633e-16 0.117487
4.62 8.19334e-10 8.0335e-16 0.117411
4.63 8.28781e-10 7.94193e-16 0.117334
4.64 8.38315e-10 7.8516e-16 0.117258
4.65 8.47938e-10 7.7625e-16 0.117181
4.66 8.57649e-10 7.67461e-16 0.117106
4.67 8.6745e-10 7.5879e-16 0.11703
4.68 8.7734e-10 7.50236e-16 0.116955
4.69 8.87322e-10 7.41796e-16 0.11688
4.7 8.97394e-10 7.3347e-16 0.116806
4.71 9.07558e-10 7.25256e-16 0.116732
4.72 9.17815e-10 7.17151e-16 0.116658
4.73 9.28165e-10 7.09154e-16 0.116584
4.74 9.38609e-10 7.01263e-16 0.116511
4.75 9.49147e-10 6.93477e-16 0.116438
4.76 9.5978e-10 6.85795e-16 0.116365
4.77 9.70509e-10 6.78213e-16 0.116292
4.78 9.81334e-10 6.70732e-16 0.11622
4.79 9.92256e-10 6.63349e-16 0.116148
4.8 1.00328e-09 6.56063e-16 0.116077
4.81 1.01439e-09 6.48873e-16 0.116005
4.82 1.02561e-09 6.41776e-16 0.115934
4.83 1.03693e-09 6.34772e-16 0.115863
4.84 1.04834e-09 6.27859e-16 0.115793
4.85 1.05986e-09 6.21037e-16 0.115723
4.86 1.07148e-09 6.14302e-16 0.115653
4.87 1.0832e-09 6.07655e-16 0.115583
4.88 1.09502e-09 6.01093e-16 0.115514
4.89 1.10695e-09 5.94616e-16 0.115445
4.9 1.11898e-09 5.88223e-16 0.115376
4.91 1.13112e-09 5.81911e-16 0.115307
4.92 1.14336e-09 5.7568e-16 0.115239
4.93 1.15571e-09 5.69529e-16 0.115171
4.94 1.16817e-09 5.63457e-16 0.115103
4.95 1.18073e-09 5.57461e-16 0.115036
4.96 1.1934e-09 5.51542e-16 0.114969
4.97 1.20618e-09 5.45698e-16 0.114902
4.98 1.21907e-09 5.39927e-16 0.114835
4.99 1.23208e-09 5.3423e-16 0.114769
5 1.24519e-09 5.28604e-16 0.114703
5.01 1.25841e-09 5.23049e-16 0.114637
10.0 1 1.66667e-17 0 
