mN[GeV] B(nu_mu_mu)
2 0.0166573
2.01 0.0166582
2.02 0.0166588
2.03 0.0166591
2.04 0.0166592
2.05 0.016659
2.06 0.0166586
2.07 0.0166579
2.08 0.016657
2.09 0.0166558
2.1 0.0166544
2.11 0.0166528
2.12 0.0166509
2.13 0.0166487
2.14 0.0166463
2.15 0.0166437
2.16 0.0166409
2.17 0.0166379
2.18 0.0166346
2.19 0.0166311
2.2 0.0166273
2.21 0.0166234
2.22 0.0166193
2.23 0.0166149
2.24 0.0166103
2.25 0.0166055
2.26 0.0166006
2.27 0.0165954
2.28 0.01659
2.29 0.0165845
2.3 0.0165787
2.31 0.0165727
2.32 0.0165666
2.33 0.0165603
2.34 0.0165538
2.35 0.0165471
2.36 0.0165403
2.37 0.0165333
2.38 0.0165261
2.39 0.0165187
2.4 0.0165112
2.41 0.0165035
2.42 0.0164957
2.43 0.0164877
2.44 0.0164796
2.45 0.0164713
2.46 0.0164628
2.47 0.0164542
2.48 0.0164455
2.49 0.0164367
2.5 0.0164277
2.51 0.0164185
2.52 0.0164093
2.53 0.0163999
2.54 0.0163904
2.55 0.0163808
2.56 0.016371
2.57 0.0163612
2.58 0.0163512
2.59 0.0163411
2.6 0.0163309
2.61 0.0163206
2.62 0.0163102
2.63 0.0162997
2.64 0.0162891
2.65 0.0162784
2.66 0.0162676
2.67 0.0162567
2.68 0.0162458
2.69 0.0162347
2.7 0.0162236
2.71 0.0162124
2.72 0.0162011
2.73 0.0161897
2.74 0.0161783
2.75 0.0161667
2.76 0.0161552
2.77 0.0161435
2.78 0.0161318
2.79 0.01612
2.8 0.0161082
2.81 0.0160963
2.82 0.0160843
2.83 0.0160723
2.84 0.0160603
2.85 0.0160482
2.86 0.016036
2.87 0.0160238
2.88 0.0160116
2.89 0.0159993
2.9 0.015987
2.91 0.0159746
2.92 0.0159622
2.93 0.0159497
2.94 0.0159373
2.95 0.0159248
2.96 0.0159122
2.97 0.0158997
2.98 0.0158871
2.99 0.015881
3 0.0158682
3.01 0.0158552
3.02 0.0158423
3.03 0.0158293
3.04 0.0158164
3.05 0.0158033
3.06 0.0157903
3.07 0.0157773
3.08 0.0157643
3.09 0.0157512
3.1 0.0157381
3.11 0.015725
3.12 0.0157119
3.13 0.0156988
3.14 0.0156857
3.15 0.0156726
3.16 0.0156595
3.17 0.0156464
3.18 0.0156333
3.19 0.0156202
3.2 0.0156071
3.21 0.0155939
3.22 0.0155808
3.23 0.0155677
3.24 0.0155546
3.25 0.0155415
3.26 0.0155284
3.27 0.0155154
3.28 0.0155023
3.29 0.0154892
3.3 0.0154762
3.31 0.0154631
3.32 0.0154501
3.33 0.0154371
3.34 0.0154241
3.35 0.0154111
3.36 0.0153981
3.37 0.0153852
3.38 0.0153723
3.39 0.0153593
3.4 0.0153464
3.41 0.0153336
3.42 0.0153207
3.43 0.0153079
3.44 0.015295
3.45 0.0152823
3.46 0.0152695
3.47 0.0152567
3.48 0.015244
3.49 0.0152313
3.5 0.0152186
3.51 0.015206
3.52 0.0151933
3.53 0.0151807
3.54 0.0151682
3.55 0.0151556
3.56 0.0151431
3.57 0.0151306
3.58 0.0151181
3.59 0.0151057
3.6 0.0150933
3.61 0.0150809
3.62 0.0150686
3.63 0.0150563
3.64 0.015044
3.65 0.0150317
3.66 0.0150195
3.67 0.0150073
3.68 0.0149952
3.69 0.014983
3.7 0.0149709
3.71 0.0149589
3.72 0.0149468
3.73 0.0149348
3.74 0.0149229
3.75 0.0149109
3.76 0.014899
3.77 0.0148872
3.78 0.0148753
3.79 0.0148635
3.8 0.0148518
3.81 0.01484
3.82 0.0148283
3.83 0.0148167
3.84 0.0148051
3.85 0.0147935
3.86 0.0147819
3.87 0.0147704
3.88 0.0147589
3.89 0.0147474
3.9 0.014736
3.91 0.0147246
3.92 0.0147133
3.93 0.0147019
3.94 0.0146907
3.95 0.0146794
3.96 0.0146682
3.97 0.014657
3.98 0.0146459
3.99 0.0146348
4 0.0146237
4.01 0.0146127
4.02 0.0146017
4.03 0.0145907
4.04 0.0145798
4.05 0.0145689
4.06 0.014558
4.07 0.0145472
4.08 0.0145364
4.09 0.0145256
4.1 0.0145149
4.11 0.0145042
4.12 0.0144936
4.13 0.014483
4.14 0.0144724
4.15 0.0144619
4.16 0.0144514
4.17 0.0144409
4.18 0.0144305
4.19 0.0144201
4.2 0.0144097
4.21 0.0143994
4.22 0.0143891
4.23 0.0143788
4.24 0.0143686
4.25 0.0143584
4.26 0.0143483
4.27 0.0143382
4.28 0.0143281
4.29 0.0143181
4.3 0.014308
4.31 0.0142981
4.32 0.0142881
4.33 0.0142782
4.34 0.0142684
4.35 0.0142585
4.36 0.0142487
4.37 0.014239
4.38 0.0142292
4.39 0.0142195
4.4 0.0142099
4.41 0.0142003
4.42 0.0141907
4.43 0.0141811
4.44 0.0141716
4.45 0.0141621
4.46 0.0141526
4.47 0.0141432
4.48 0.0141338
4.49 0.0141245
4.5 0.0141152
4.51 0.0141059
4.52 0.0140966
4.53 0.0140874
4.54 0.0140782
4.55 0.0140691
4.56 0.01406
4.57 0.0140509
4.58 0.0140418
4.59 0.0140328
4.6 0.0140238
4.61 0.0140149
4.62 0.014006
4.63 0.0139971
4.64 0.0139883
4.65 0.0139794
4.66 0.0139706
4.67 0.0139619
4.68 0.0139532
4.69 0.0139445
4.7 0.0139358
4.71 0.0139272
4.72 0.0139186
4.73 0.0139101
4.74 0.0139015
4.75 0.013893
4.76 0.0138846
4.77 0.0138761
4.78 0.0138677
4.79 0.0138594
4.8 0.013851
4.81 0.0138427
4.82 0.0138345
4.83 0.0138262
4.84 0.013818
4.85 0.0138098
4.86 0.0138017
4.87 0.0137936
4.88 0.0137855
4.89 0.0137774
4.9 0.0137694
4.91 0.0137614
4.92 0.0137534
4.93 0.0137455
4.94 0.0137376
4.95 0.0137297
4.96 0.0137218
4.97 0.013714
4.98 0.0137062
4.99 0.0136985
5 0.0136907
5.01 0.013683
5 0.0136907
5.01 0.0136833
5.02 0.013676
5.03 0.0136687
5.04 0.0136614
5.05 0.0136541
5.06 0.0136469
5.07 0.0136396
5.08 0.0136325
5.09 0.0136254
5.1 0.0136182
5.11 0.0136111
5.12 0.013604
5.13 0.013597
5.14 0.01359
5.15 0.013583
5.16 0.013576
5.17 0.013569
5.18 0.0135621
5.19 0.0135552
5.2 0.0135484
5.21 0.0135415
5.22 0.0135347
5.23 0.0135279
5.24 0.0135212
5.25 0.0135144
5.26 0.0135077
5.27 0.0135011
5.28 0.0134944
5.29 0.0134878
5.3 0.0134812
5.31 0.0134746
5.32 0.0134681
5.33 0.0134615
5.34 0.013455
5.35 0.0134485
5.36 0.0134421
5.37 0.0134357
5.38 0.0134293
5.39 0.0134228
5.4 0.0134165
5.41 0.0134102
5.42 0.0134039
5.43 0.0133975
5.44 0.0133913
5.45 0.0133851
5.46 0.0133789
5.47 0.0133726
5.48 0.0133665
5.49 0.0133604
5.5 0.0133542
5.51 0.0133481
5.52 0.0133421
5.53 0.0133359
5.54 0.01333
5.55 0.013324
5.56 0.0133179
5.57 0.013312
5.58 0.0133061
5.59 0.0133001
5.6 0.0132943
5.61 0.0132884
5.62 0.0132826
5.63 0.0132767
5.64 0.0132709
5.65 0.0132651
5.66 0.0132594
5.67 0.0132537
5.68 0.0132479
5.69 0.0132423
5.7 0.0132365
5.71 0.0132309
5.72 0.0132253
5.73 0.0132196
5.74 0.0132141
5.75 0.0132085
5.76 0.013203
5.77 0.0131974
5.78 0.0131919
5.79 0.0131864
5.8 0.0131809
5.81 0.0131755
5.82 0.0131701
5.83 0.0131647
5.84 0.0131593
5.85 0.0131539
5.86 0.0131486
5.87 0.0131433
5.88 0.0131379
5.89 0.0131327
5.9 0.0131274
5.91 0.0131222
5.92 0.0131169
5.93 0.0131118
5.94 0.0131066
5.95 0.0131014
5.96 0.0130963
5.97 0.0130912
5.98 0.013086
5.99 0.0130809
6 0.0130758
6.01 0.0130708
6.02 0.0130658
6.03 0.0130608
6.04 0.0130557
6.05 0.0130507
6.06 0.0130459
6.07 0.0130409
6.08 0.013036
6.09 0.0130311
6.1 0.0130262
6.11 0.0130213
6.12 0.0130164
6.13 0.0130117
6.14 0.0130068
6.15 0.013002
6.16 0.0129973
6.17 0.0129925
6.18 0.0129877
6.19 0.012983
6.2 0.0129783
6.21 0.0129736
6.22 0.0129689
6.23 0.0129643
6.24 0.0129596
6.25 0.012955
6.26 0.0129504
6.27 0.0129458
6.28 0.0129412
6.29 0.0129367
6.3 0.0129321
6.31 0.0129276
6.32 0.0129231
6.33 0.0129186
6.34 0.0129141
6.35 0.0129097
6.36 0.0129053
6.37 0.0129008
6.38 0.0128964
6.39 0.0128921
6.4 0.0128877
6.41 0.0128833
6.42 0.012879
6.43 0.0128747
6.44 0.0128704
6.45 0.012866
6.46 0.0128617
6.47 0.0128575
6.48 0.0128532
6.49 0.012849
6.5 0.0128448
6.51 0.0128406
6.52 0.0128363
6.53 0.0128322
6.54 0.012828
6.55 0.0128239
6.56 0.0128198
6.57 0.0128156
6.58 0.0128115
6.59 0.0128075
6.6 0.0128034
6.61 0.0127994
6.62 0.0127953
6.63 0.0127912
6.64 0.0127873
6.65 0.0127833
6.66 0.0127792
6.67 0.0127753
6.68 0.0127713
6.69 0.0127674
6.7 0.0127634
6.71 0.0127595
6.72 0.0127557
6.73 0.0127517
6.74 0.0127479
6.75 0.012744
6.76 0.0127402
6.77 0.0127363
6.78 0.0127325
6.79 0.0127288
6.8 0.0127249
6.81 0.0127212
6.82 0.0127174
6.83 0.0127136
6.84 0.0127099
6.85 0.0127061
6.86 0.0127025
6.87 0.0126988
6.88 0.012695
6.89 0.0126914
6.9 0.0126878
6.91 0.0126841
6.92 0.0126805
6.93 0.0126768
6.94 0.0126732
6.95 0.0126696
6.96 0.012666
6.97 0.0126625
6.98 0.0126589
6.99 0.0126554
7 0.0126518
7.01 0.0126483
7.02 0.0126448
7.03 0.0126413
7.04 0.0126378
7.05 0.0126343
7.06 0.0126308
7.07 0.0126274
7.08 0.012624
7.09 0.0126205
7.1 0.0126171
7.11 0.0126137
7.12 0.0126103
7.13 0.012607
7.14 0.0126035
7.15 0.0126002
7.16 0.0125968
7.17 0.0125936
7.18 0.0125902
7.19 0.0125869
7.2 0.0125836
7.21 0.0125804
7.22 0.012577
7.23 0.0125738
7.24 0.0125705
7.25 0.0125672
7.26 0.0125641
7.27 0.0125608
7.28 0.0125577
7.29 0.0125544
7.3 0.0125512
7.31 0.0125481
7.32 0.0125449
7.33 0.0125418
7.34 0.0125386
7.35 0.0125354
7.36 0.0125323
7.37 0.0125292
7.38 0.012526
7.39 0.012523
7.4 0.0125199
7.41 0.0125168
7.42 0.0125138
7.43 0.0125107
7.44 0.0125076
7.45 0.0125047
7.46 0.0125016
7.47 0.0124986
7.48 0.0124956
7.49 0.0124926
7.5 0.0124896
7.51 0.0124867
7.52 0.0124837
7.53 0.0124807
7.54 0.0124778
7.55 0.0124749
7.56 0.0124719
7.57 0.012469
7.58 0.0124662
7.59 0.0124632
7.6 0.0124603
7.61 0.0124574
7.62 0.0124546
7.63 0.0124517
7.64 0.0124489
7.65 0.012446
7.66 0.0124433
7.67 0.0124404
7.68 0.0124376
7.69 0.0124348
7.7 0.012432
7.71 0.0124292
7.72 0.0124264
7.73 0.0124237
7.74 0.0124209
7.75 0.0124182
7.76 0.0124155
7.77 0.0124127
7.78 0.01241
7.79 0.0124072
7.8 0.0124046
7.81 0.0124019
7.82 0.0123992
7.83 0.0123965
7.84 0.0123938
7.85 0.0123912
7.86 0.0123886
7.87 0.0123859
7.88 0.0123833
7.89 0.0123806
7.9 0.012378
7.91 0.0123754
7.92 0.0123729
7.93 0.0123703
7.94 0.0123677
7.95 0.0123651
7.96 0.0123625
7.97 0.0123599
7.98 0.0123574
7.99 0.0123548
8 0.0123524
8.01 0.0123498
8.02 0.0123473
8.03 0.0123448
8.04 0.0123423
8.05 0.0123398
8.06 0.0123373
8.07 0.0123348
8.08 0.0123323
8.09 0.0123298
8.1 0.0123274
8.11 0.012325
8.12 0.0123226
8.13 0.0123201
8.14 0.0123177
8.15 0.0123153
8.16 0.0123129
8.17 0.0123105
8.18 0.0123081
8.19 0.0123057
8.2 0.0123033
8.21 0.0123009
8.22 0.0122986
8.23 0.0122962
8.24 0.0122938
8.25 0.0122915
8.26 0.0122892
8.27 0.0122868
8.28 0.0122845
8.29 0.0122822
8.3 0.0122799
8.31 0.0122776
8.32 0.0122753
8.33 0.012273
8.34 0.0122707
8.35 0.0122685
8.36 0.0122662
8.37 0.012264
8.38 0.0122617
8.39 0.0122595
8.4 0.0122572
8.41 0.012255
8.42 0.0122528
8.43 0.0122506
8.44 0.0122484
8.45 0.0122462
8.46 0.012244
8.47 0.0122418
8.48 0.0122396
8.49 0.0122375
8.5 0.0122353
8.51 0.0122331
8.52 0.012231
8.53 0.0122288
8.54 0.0122267
8.55 0.0122246
8.56 0.0122224
8.57 0.0122202
8.58 0.0122181
8.59 0.012216
8.6 0.0122139
8.61 0.0122119
8.62 0.0122098
8.63 0.0122077
8.64 0.0122056
8.65 0.0122036
8.66 0.0122015
8.67 0.0121995
8.68 0.0121973
8.69 0.0121953
8.7 0.0121933
8.71 0.0121912
8.72 0.0121892
8.73 0.0121872
8.74 0.0121852
8.75 0.0121832
8.76 0.0121812
8.77 0.0121791
8.78 0.0121771
8.79 0.0121752
8.8 0.0121732
8.81 0.0121712
8.82 0.0121693
8.83 0.0121673
8.84 0.0121653
8.85 0.0121634
8.86 0.0121614
8.87 0.0121595
8.88 0.0121576
8.89 0.0121557
8.9 0.0121538
8.91 0.0121518
8.92 0.0121499
8.93 0.012148
8.94 0.0121461
8.95 0.0121442
8.96 0.0121424
8.97 0.0121404
8.98 0.0121385
8.99 0.0121367
9 0.0121348
9.01 0.012133
9.02 0.0121311
9.03 0.0121292
9.04 0.0121274
9.05 0.0121256
9.06 0.0121238
9.07 0.012122
9.08 0.01212
9.09 0.0121183
9.1 0.0121165
9.11 0.0121147
9.12 0.0121128
9.13 0.012111
9.14 0.0121092
9.15 0.0121075
9.16 0.0121057
9.17 0.0121039
9.18 0.0121021
9.19 0.0121004
9.2 0.0120986
9.21 0.0120969
9.22 0.0120951
9.23 0.0120934
9.24 0.0120916
9.25 0.0120899
9.26 0.0120881
9.27 0.0120864
9.28 0.0120847
9.29 0.012083
9.3 0.0120812
9.31 0.0120796
9.32 0.0120779
9.33 0.0120762
9.34 0.0120744
9.35 0.0120728
9.36 0.0120711
9.37 0.0120695
9.38 0.0120677
9.39 0.0120661
9.4 0.0120645
9.41 0.0120627
9.42 0.0120611
9.43 0.0120595
9.44 0.0120579
9.45 0.0120561
9.46 0.0120545
9.47 0.0120529
9.48 0.0120512
9.49 0.0120496
9.5 0.0120481
9.51 0.0120465
9.52 0.0120448
9.53 0.0120432
9.54 0.0120417
9.55 0.01204
9.56 0.0120384
9.57 0.0120369
9.58 0.0120353
9.59 0.0120337
9.6 0.0120321
9.61 0.0120306
9.62 0.012029
9.63 0.0120274
9.64 0.0120259
9.65 0.0120243
9.66 0.0120228
9.67 0.0120213
9.68 0.0120197
9.69 0.0120182
9.7 0.0120167
9.71 0.0120151
9.72 0.0120136
9.73 0.0120121
9.74 0.0120105
9.75 0.0120091
9.76 0.0120076
9.77 0.012006
9.78 0.0120046
9.79 0.0120031
9.8 0.0120015
9.81 0.0120001
9.82 0.0119986
9.83 0.0119971
9.84 0.0119957
9.85 0.0119942
9.86 0.0119927
9.87 0.0119913
9.88 0.0119898
9.89 0.0119884
9.9 0.0119869
9.91 0.0119854
9.92 0.011984
9.93 0.0119826
9.94 0.0119811
9.95 0.0119797
9.96 0.0119783
9.97 0.0119769
9.98 0.0119755
9.99 0.011974
10 0.0119726
10.01 0.0119713
